# tau amp

1e-4 -1.41
1e-2 -1.38
0.05 -1.34
0.1  -1.27
0.2  -1.19
0.3  -1.11
0.4  -1.03
0.5  -0.952
0.6  -0.877
0.7  -0.8
0.8  -0.73
0.9  -0.66
1.0  -0.607
1.2  -0.505
1.4  -0.405
1.6  -0.302
1.8  -0.127
1.85 -0.108
1.9  -0.098
1.95 -0.079
2.1   0.044
2.2 0.160
2.3 0.212