   0.0000   4832490
   0.0050   5875260
   0.0100   6520660
   0.0150   6555550
   0.0200   6111970
   0.0250   5242840
   0.0300   4127300
   0.0350   3115300
   0.0400   2384520
   0.0450   1986250
   0.0500   1806710
   0.0550   1712190
   0.0600   1698970
   0.0650   1697980
   0.0700   1718620
   0.0750   1770250
   0.0800   1824810
   0.0850   1902250
   0.0900   1976460
   0.0950   2058660
   0.1000   2133100
   0.1050   2215780
   0.1100   2296540
   0.1150   2375940
   0.1200   2446870
   0.1250   2527070
   0.1300   2609550
   0.1350   2692750
   0.1400   2743650
   0.1450   2801960
   0.1500   2854830
   0.1550   2924790
   0.1600   2972590
   0.1650   3013500
   0.1700   3056130
   0.1750   3109360
   0.1800   3174780
   0.1850   3219930
   0.1900   3269750
   0.1950   3282070
   0.2000   3266090
   0.2050   3184000
   0.2100   3030180
   0.2150   2813010
   0.2200   2518850
   0.2250   2190610
   0.2300   1843150
   0.2350   1512830
   0.2400   1191150
   0.2450    909740
   0.2500    709858
   0.2550    547716
   0.2600    419656
   0.2650    340212
   0.2700    291348
   0.2750    259037
   0.2800    232307
   0.2850    204981
   0.2900    178285
   0.2950    153821
   0.3000    135565
   0.3050    123098
   0.3100    116167
   0.3150    109466
   0.3200    102799
   0.3250     94618
   0.3300     85315
   0.3350     76409
   0.3400     68859
   0.3450     63006
   0.3500     59482
   0.3550     58036
   0.3600     56382
   0.3650     54773
   0.3700     50897
   0.3750     46814
   0.3800     42011
   0.3850     37783
   0.3900     34951
   0.3950     33385
   0.4000     33045
   0.4050     33087
   0.4100     32768
   0.4150     31194
   0.4200     29047
   0.4250     26047
   0.4300     23755
   0.4350     21487
   0.4400     19984
   0.4450     19833
   0.4500     20187
   0.4550     20506
   0.4600     20199
   0.4650     19048
   0.4700     18037
   0.4750     16102
   0.4800     14222
   0.4850     13096
   0.4900     12614
   0.4950     12361
   0.5000     12530
   0.5050     13008
   0.5100     12816
   0.5150     12440
   0.5200     11577
   0.5250     10518
   0.5300      9314
   0.5350      8564
   0.5400      8145
   0.5450      8224
   0.5500      8319
   0.5550      8684
   0.5600      8824
   0.5650      8588
   0.5700      7955
   0.5750      7194
   0.5800      6481
   0.5850      5815
   0.5900      5475
   0.5950      5492
   0.6000      5624
   0.6050      5889
   0.6100      6047
   0.6150      5954
   0.6200      5655
   0.6250      5220
   0.6300      4537
   0.6350      4293
   0.6400      3803
   0.6450      3671
   0.6500      3873
   0.6550      4061
   0.6600      4041
   0.6650      4298
   0.6700      4105
   0.6750      3776
   0.6800      3480
   0.6850      3052
   0.6900      2788
   0.6950      2758
   0.7000      2718
   0.7050      2789
   0.7100      2928
   0.7150      2947
   0.7200      2933
   0.7250      2859
   0.7300      2561
   0.7350      2372
   0.7400      2170
   0.7450      2068
   0.7500      2006
   0.7550      2027
   0.7600      2063
   0.7650      2112
   0.7700      2202
   0.7750      2085
   0.7800      1946
   0.7850      1801
   0.7900      1662
   0.7950      1520
   0.8000      1558
   0.8050      1456
   0.8100      1475
   0.8150      1490
   0.8200      1562
   0.8250      1542
   0.8300      1459
   0.8350      1418
   0.8400      1328
   0.8450      1132
   0.8500      1114
   0.8550      1114
   0.8600      1120
   0.8650      1125
   0.8700      1188
   0.8750      1154
   0.8800      1099
   0.8850      1074
   0.8900       970
   0.8950       904
   0.9000       782
   0.9050       814
   0.9100       806
   0.9150       818
   0.9200       834
   0.9250       822
   0.9300       800
   0.9350       785
   0.9400       741
   0.9450       704
   0.9500       663
   0.9550       628
   0.9600       605
   0.9650       583
   0.9700       619
   0.9750       660
   0.9800       628
   0.9850       603
   0.9900       597
   0.9950       549
   1.0000       522
   1.0050       482
   1.0100       480
   1.0150       436
   1.0200       490
   1.0250       447
   1.0300       467
   1.0350       467
   1.0400       502
   1.0450       443
   1.0500       435
   1.0550       374
   1.0600       358
   1.0650       336
   1.0700       404
   1.0750       353
   1.0800       369
   1.0850       363
   1.0900       350
   1.0950       338
   1.1000       324
   1.1050       331
   1.1100       272
   1.1150       278
   1.1200       274
   1.1250       268
   1.1300       261
   1.1350       255
   1.1400       280
   1.1450       312
   1.1500       255
   1.1550       250
   1.1600       249
   1.1650       264
   1.1700       225
   1.1750       224
   1.1800       231
   1.1850       223
   1.1900       225
   1.1950       233
   1.2000       234
   1.2050       181
   1.2100       192
   1.2150       166
   1.2200       169
   1.2250       176
   1.2300       164
   1.2350       165
   1.2400       167
   1.2450       186
   1.2500       180
   1.2550       162
   1.2600       175
   1.2650       135
   1.2700       123
   1.2750       131
   1.2800       129
   1.2850       144
   1.2900       130
   1.2950       136
   1.3000       128
   1.3050       123
   1.3100       120
   1.3150        89
   1.3200       102
   1.3250       108
   1.3300        87
   1.3350        82
   1.3400       103
   1.3450        95
   1.3500       120
   1.3550       111
   1.3600       106
   1.3650        97
   1.3700        92
   1.3750        87
   1.3800        91
   1.3850        84
   1.3900        89
   1.3950        93
   1.4000        93
   1.4050        98
   1.4100        81
   1.4150        76
   1.4200        75
   1.4250        82
   1.4300        70
   1.4350        64
   1.4400        67
   1.4450        74
   1.4500        68
   1.4550        72
   1.4600        64
   1.4650        73
   1.4700        70
   1.4750        63
   1.4800        50
   1.4850        66
   1.4900        40
   1.4950        52
   1.5000        46
   1.5050        55
   1.5100        69
   1.5150        74
   1.5200        48
   1.5250        64
   1.5300        46
   1.5350        50
   1.5400        46
   1.5450        51
   1.5500        38
   1.5550        44
   1.5600        49
   1.5650        41
   1.5700        49
   1.5750        46
   1.5800        35
   1.5850        36
   1.5900        50
   1.5950        38
   1.6000        32
   1.6050        30
   1.6100        28
   1.6150        36
   1.6200        40
   1.6250        31
   1.6300        42
   1.6350        33
   1.6400        31
   1.6450        20
   1.6500        32
   1.6550        20
   1.6600        23
   1.6650        25
   1.6700        28
   1.6750        32
   1.6800        33
   1.6850        24
   1.6900        27
   1.6950        21
   1.7000        18
   1.7050        23
   1.7100        19
   1.7150        21
   1.7200        26
   1.7250        21
   1.7300        20
   1.7350        11
   1.7400        16
   1.7450        26
   1.7500        21
   1.7550        16
   1.7600        13
   1.7650        17
   1.7700        22
   1.7750        20
   1.7800        23
   1.7850        17
   1.7900        25
   1.7950        29
   1.8000        16
   1.8050        16
   1.8100        18
   1.8150        18
   1.8200        21
   1.8250        12
   1.8300        10
   1.8350        13
   1.8400        14
   1.8450        15
   1.8500        15
   1.8550        11
   1.8600        14
   1.8650        14
   1.8700        11
   1.8750        15
   1.8800        22
   1.8850        14
   1.8900        14
   1.8950        10
   1.9000        17
   1.9050        15
   1.9100        14
   1.9150        12
   1.9200        11
   1.9250        11
   1.9300        10
   1.9350        16
   1.9400         6
   1.9450        12
   1.9500        13
   1.9550         7
   1.9600         8
   1.9650        12
   1.9700         8
   1.9750        10
   1.9800         3
   1.9850         9
   1.9900        11
   1.9950        13
   2.0000         5
   2.0050         7
   2.0100         9
   2.0150         6
   2.0200         8
   2.0250        11
   2.0300         4
   2.0350         7
   2.0400         7
   2.0450         9
   2.0500         5
   2.0550         9
   2.0600        10
   2.0650        10
   2.0700         7
   2.0750         6
   2.0800         4
   2.0850        10
   2.0900         4
   2.0950         4
   2.1000         8
   2.1050         5
   2.1100         5
   2.1150         3
   2.1200        10
   2.1250         6
   2.1300         3
   2.1350         7
   2.1400        15
   2.1450         2
   2.1500         5
   2.1550        15
   2.1600         6
   2.1650         9
   2.1700         7
   2.1750         5
   2.1800         4
   2.1850         3
   2.1900         3
   2.1950         2
   2.2000         5
   2.2050         6
   2.2100         5
   2.2150         6
   2.2200         3
   2.2250         4
   2.2300         8
   2.2350         1
   2.2400         4
   2.2450         8
   2.2500         5
   2.2550         5
   2.2600         3
   2.2650         4
   2.2700         7
   2.2750         5
   2.2800         3
   2.2850         9
   2.2900         6
   2.2950         4
   2.3000         4
   2.3050         0
   2.3100         5
   2.3150         1
   2.3200         2
   2.3250         4
   2.3300         3
   2.3350         4
   2.3400         7
   2.3450         3
   2.3500         1
   2.3550         3
   2.3600         6
   2.3650         4
   2.3700         1
   2.3750         3
   2.3800         3
   2.3850         1
   2.3900         3
   2.3950         1
   2.4000         1
   2.4050         3
   2.4100         1
   2.4150         3
   2.4200         6
   2.4250         4
   2.4300         0
   2.4350         3
   2.4400         2
   2.4450         4
   2.4500         3
   2.4550         2
   2.4600         5
   2.4650         1
   2.4700         1
   2.4750         1
   2.4800         2
   2.4850         2
   2.4900         3
   2.4950         1
   2.5000         1
