  -1.0000   1743610
  -0.9800   1736160
  -0.9600   1729870
  -0.9400   1724480
  -0.9200   1728260
  -0.9000   1733140
  -0.8800   1727110
  -0.8600   1732570
  -0.8400   1719210
  -0.8200   1750090
  -0.8000   1738600
  -0.7800   1750800
  -0.7600   1734750
  -0.7400   1760170
  -0.7200   1730900
  -0.7000   1749580
  -0.6800   1733210
  -0.6600   1738220
  -0.6400   1732570
  -0.6200   1733790
  -0.6000   1748550
  -0.5800   1750160
  -0.5600   1727370
  -0.5400   1741550
  -0.5200   1736350
  -0.5000   1758120
  -0.4800   1730380
  -0.4600   1763570
  -0.4400   1752150
  -0.4200   1753620
  -0.4000   1747850
  -0.3800   1753490
  -0.3600   1754590
  -0.3400   1734110
  -0.3200   1657450
  -0.3000   1535020
  -0.2800   1371440
  -0.2600   1303550
  -0.2400   1064930
  -0.2200    792149
  -0.2000    554430
  -0.1800    339898
  -0.1600    177774
  -0.1400     58581
  -0.1200      6582
  -0.1000        73
  -0.0800        23
  -0.0600        14
  -0.0400         6
  -0.0200         6
   0.0000        12
   0.0200        16
   0.0400        25
   0.0600        21
   0.0800        26
   0.1000        35
   0.1200        53
   0.1400        49
   0.1600        79
   0.1800       123
   0.2000       163
   0.2200       213
   0.2400       327
   0.2600       711
   0.2800      1988
   0.3000      4673
   0.3200     10461
   0.3400     33796
   0.3600     61306
   0.3800     89449
   0.4000    123242
   0.4200    154457
   0.4400    174815
   0.4600    177686
   0.4800    163145
   0.5000    145385
   0.5200    119224
   0.5400     84529
   0.5600     44133
   0.5800      5521
   0.6000      2329
   0.6200      1101
   0.6400       581
   0.6600       325
   0.6800       166
   0.7000       123
   0.7200        41
   0.7400        24
   0.7600         8
   0.7800         3
   0.8000         0
   0.8200         0
   0.8400         0
   0.8600         0
   0.8800         0
   0.9000         0
   0.9200         0
   0.9400         0
   0.9600         0
   0.9800         0
   1.0000         0
