   0.0000    824642
   0.0050    720328
   0.0100    619318
   0.0150    518044
   0.0200    444707
   0.0250    395631
   0.0300    351868
   0.0350    323525
   0.0400    303072
   0.0450    286409
   0.0500    274356
   0.0550    258594
   0.0600    244546
   0.0650    231445
   0.0700    217199
   0.0750    201587
   0.0800    192802
   0.0850    185890
   0.0900    180009
   0.0950    175593
   0.1000    171322
   0.1050    161762
   0.1100    152451
   0.1150    146216
   0.1200    139660
   0.1250    129474
   0.1300    119533
   0.1350    113572
   0.1400    110491
   0.1450    105847
   0.1500     99371
   0.1550     89845
   0.1600     81258
   0.1650     73106
   0.1700     62484
   0.1750     51784
   0.1800     42818
   0.1850     34586
   0.1900     28590
   0.1950     24513
   0.2000     21958
   0.2050     19915
   0.2100     18065
   0.2150     15859
   0.2200     12831
   0.2250     10361
   0.2300      8006
   0.2350      6521
   0.2400      5970
   0.2450      5822
   0.2500      5727
   0.2550      5696
   0.2600      5466
   0.2650      4788
   0.2700      4028
   0.2750      3515
   0.2800      2994
   0.2850      2925
   0.2900      2949
   0.2950      3063
   0.3000      3142
   0.3050      3227
   0.3100      2967
   0.3150      2667
   0.3200      2357
   0.3250      2024
   0.3300      1921
   0.3350      1738
   0.3400      1921
   0.3450      1955
   0.3500      1988
   0.3550      2021
   0.3600      1860
   0.3650      1731
   0.3700      1557
   0.3750      1270
   0.3800      1228
   0.3850      1218
   0.3900      1281
   0.3950      1315
   0.4000      1354
   0.4050      1328
   0.4100      1247
   0.4150      1166
   0.4200       941
   0.4250       894
   0.4300       726
   0.4350       678
   0.4400       686
   0.4450       696
   0.4500       733
   0.4550       812
   0.4600       714
   0.4650       682
   0.4700       584
   0.4750       511
   0.4800       479
   0.4850       494
   0.4900       483
   0.4950       522
   0.5000       556
   0.5050       583
   0.5100       526
   0.5150       548
   0.5200       445
   0.5250       430
   0.5300       366
   0.5350       365
   0.5400       360
   0.5450       362
   0.5500       399
   0.5550       452
   0.5600       474
   0.5650       377
   0.5700       395
   0.5750       355
   0.5800       365
   0.5850       324
   0.5900       268
   0.5950       267
   0.6000       321
   0.6050       319
   0.6100       337
   0.6150       324
   0.6200       307
   0.6250       292
   0.6300       255
   0.6350       250
   0.6400       244
   0.6450       249
   0.6500       243
   0.6550       260
   0.6600       259
   0.6650       252
   0.6700       275
   0.6750       273
   0.6800       197
   0.6850       227
   0.6900       195
   0.6950       200
   0.7000       198
   0.7050       185
   0.7100       177
   0.7150       228
   0.7200       222
   0.7250       205
   0.7300       186
   0.7350       211
   0.7400       183
   0.7450       157
   0.7500       145
   0.7550       168
   0.7600       147
   0.7650       156
   0.7700       177
   0.7750       174
   0.7800       180
   0.7850       174
   0.7900       141
   0.7950       127
   0.8000       134
   0.8050       126
   0.8100       126
   0.8150       115
   0.8200       146
   0.8250       120
   0.8300       151
   0.8350       151
   0.8400       126
   0.8450       129
   0.8500       120
   0.8550       105
   0.8600       121
   0.8650       110
   0.8700        96
   0.8750       114
   0.8800        86
   0.8850       104
   0.8900       122
   0.8950        79
   0.9000        78
   0.9050        79
   0.9100        76
   0.9150        89
   0.9200        92
   0.9250        94
   0.9300        83
   0.9350        81
   0.9400        82
   0.9450        80
   0.9500        73
   0.9550        81
   0.9600        79
   0.9650        72
   0.9700        67
   0.9750        56
   0.9800        60
   0.9850        70
   0.9900        58
   0.9950        73
   1.0000        53
   1.0050        73
   1.0100        62
   1.0150        69
   1.0200        63
   1.0250        61
   1.0300        59
   1.0350        65
   1.0400        56
   1.0450        50
   1.0500        58
   1.0550        55
   1.0600        43
   1.0650        55
   1.0700        31
   1.0750        47
   1.0800        31
   1.0850        37
   1.0900        50
   1.0950        54
   1.1000        54
   1.1050        51
   1.1100        39
   1.1150        42
   1.1200        36
   1.1250        31
   1.1300        43
   1.1350        31
   1.1400        37
   1.1450        40
   1.1500        42
   1.1550        30
   1.1600        42
   1.1650        29
   1.1700        33
   1.1750        35
   1.1800        27
   1.1850        26
   1.1900        29
   1.1950        24
   1.2000        24
   1.2050        38
   1.2100        35
   1.2150        24
   1.2200        24
   1.2250        25
   1.2300        17
   1.2350        14
   1.2400        14
   1.2450        18
   1.2500        28
   1.2550        22
   1.2600        22
   1.2650        21
   1.2700        30
   1.2750        16
   1.2800        18
   1.2850        22
   1.2900        18
   1.2950        16
   1.3000        18
   1.3050        12
   1.3100        23
   1.3150        19
   1.3200        23
   1.3250        15
   1.3300         7
   1.3350        23
   1.3400        18
   1.3450        11
   1.3500        14
   1.3550        20
   1.3600        22
   1.3650        21
   1.3700        18
   1.3750        14
   1.3800        14
   1.3850        12
   1.3900        10
   1.3950        12
   1.4000         6
   1.4050        14
   1.4100        11
   1.4150        16
   1.4200        12
   1.4250        13
   1.4300        14
   1.4350        13
   1.4400         5
   1.4450        11
   1.4500        10
   1.4550        15
   1.4600         8
   1.4650        15
   1.4700         8
   1.4750         7
   1.4800        13
   1.4850        11
   1.4900        11
   1.4950        10
   1.5000        11
   1.5050         4
   1.5100         7
   1.5150         7
   1.5200         6
   1.5250        12
   1.5300         7
   1.5350        10
   1.5400        12
   1.5450        12
   1.5500         7
   1.5550         6
   1.5600         5
   1.5650         6
   1.5700        10
   1.5750         6
   1.5800         7
   1.5850         3
   1.5900         4
   1.5950         9
   1.6000         3
   1.6050         7
   1.6100         8
   1.6150         4
   1.6200         8
   1.6250         6
   1.6300         7
   1.6350         5
   1.6400         4
   1.6450         3
   1.6500         3
   1.6550         4
   1.6600         3
   1.6650         7
   1.6700         8
   1.6750         5
   1.6800         7
   1.6850         3
   1.6900         7
   1.6950         5
   1.7000         6
   1.7050         4
   1.7100         4
   1.7150         6
   1.7200         3
   1.7250         6
   1.7300         5
   1.7350         6
   1.7400         5
   1.7450         8
   1.7500         5
   1.7550         1
   1.7600         4
   1.7650         1
   1.7700         5
   1.7750         1
   1.7800         4
   1.7850         3
   1.7900         4
   1.7950         2
   1.8000         5
   1.8050         0
   1.8100         2
   1.8150         5
   1.8200         5
   1.8250         4
   1.8300         5
   1.8350         4
   1.8400         4
   1.8450         2
   1.8500         3
   1.8550         4
   1.8600         4
   1.8650         5
   1.8700         2
   1.8750         2
   1.8800         1
   1.8850         5
   1.8900         4
   1.8950         6
   1.9000         0
   1.9050         1
   1.9100         4
   1.9150         2
   1.9200         6
   1.9250         2
   1.9300         3
   1.9350         3
   1.9400         3
   1.9450         1
   1.9500         3
   1.9550         2
   1.9600         2
   1.9650         0
   1.9700         2
   1.9750         1
   1.9800         0
   1.9850         5
   1.9900         3
   1.9950         0
   2.0000         4
   2.0050         1
   2.0100         0
   2.0150         2
   2.0200         1
   2.0250         4
   2.0300         2
   2.0350         2
   2.0400         3
   2.0450         2
   2.0500         1
   2.0550         1
   2.0600         1
   2.0650         1
   2.0700         0
   2.0750         3
   2.0800         1
   2.0850         2
   2.0900         5
   2.0950         2
   2.1000         0
   2.1050         1
   2.1100         3
   2.1150         2
   2.1200         2
   2.1250         1
   2.1300         0
   2.1350         4
   2.1400         2
   2.1450         2
   2.1500         3
   2.1550         0
   2.1600         2
   2.1650         2
   2.1700         2
   2.1750         3
   2.1800         1
   2.1850         0
   2.1900         0
   2.1950         2
   2.2000         1
   2.2050         0
   2.2100         1
   2.2150         0
   2.2200         0
   2.2250         1
   2.2300         3
   2.2350         1
   2.2400         2
   2.2450         0
   2.2500         2
   2.2550         2
   2.2600         0
   2.2650         1
   2.2700         1
   2.2750         3
   2.2800         1
   2.2850         1
   2.2900         1
   2.2950         1
   2.3000         0
   2.3050         0
   2.3100         2
   2.3150         3
   2.3200         0
   2.3250         1
   2.3300         2
   2.3350         1
   2.3400         1
   2.3450         0
   2.3500         0
   2.3550         2
   2.3600         2
   2.3650         1
   2.3700         0
   2.3750         0
   2.3800         3
   2.3850         0
   2.3900         1
   2.3950         0
   2.4000         1
   2.4050         1
   2.4100         1
   2.4150         1
   2.4200         2
   2.4250         0
   2.4300         1
   2.4350         4
   2.4400         2
   2.4450         3
   2.4500         1
   2.4550         1
   2.4600         2
   2.4650         2
   2.4700         1
   2.4750         0
   2.4800         0
   2.4850         2
   2.4900         0
   2.4950         1
   2.5000         0
